excitation_nm,emission_nm,intensity
250,300,0.003501016872699179
250,305,0.008193929938496753
250,310,0.006821153376588849
250,315,0.009985984348327401
250,320,-0.022268772293068718
250,325,-0.024531941825154138
250,330,0.0007282838195187498
250,335,-0.01433194357421933
250,340,-0.015123500228484984
250,345,-0.0037342890120677713
250,350,0.0009083032434463608
250,355,0.016273704961128246
250,360,0.005807634061064431
250,365,-0.0021249920005706555
250,370,-0.0002594522083849555
250,375,0.009860937347267933
250,380,-0.004273022513766841
250,385,-0.0002223808098735297
250,390,0.012428277636309657
250,395,-0.008465141681140924
250,400,-0.014099029453708976
250,405,-0.001900623926789452
250,410,0.011052703318943077
250,415,0.008179947027904139
250,420,0.0018750622043314281
250,425,0.004731350334480971
250,430,-0.012421528270914136
250,435,0.005532130948724338
250,440,0.0026443494973857505
250,445,-0.014437731664993686
250,450,0.0015615523075486097
250,455,0.007696183372174077
250,460,0.007624381894461499
250,465,0.00023624773182152992
250,470,-0.007538146114695511
250,475,-0.004121328390464425
250,480,0.005869629929352077
250,485,0.001233946483056849
250,490,-0.0011690635329821735
250,495,-0.0032866502885314855
250,500,-0.029967662007296707
250,505,-0.02461766832434877
250,510,0.008350075420237675
250,515,0.011242207281952625
250,520,0.0024510443249127997
250,525,0.020529547681837276
250,530,-0.006740616621914703
250,535,0.012467562886026615
250,540,-0.021672973611414893
250,545,-0.009384107783431371
250,550,0.000604515921839231
250,555,-0.007889352411587877
250,560,0.0007004409517746225
250,565,-0.0040681577752233935
250,570,-8.612870125958077e-05
250,575,0.008736790229697354
250,580,-0.007052669071472196
250,585,0.017209933217241288
250,590,0.010873229073038141
250,595,-0.010218392723651085
250,600,0.014715282593323378
255,300,-0.009713634595223163
255,305,0.002911317448117255
255,310,0.004971468964838963
255,315,-0.007468881592367282
255,320,-0.009941259452775792
255,325,0.006597029749670962
255,330,0.0018633736394847173
255,335,0.0024526859108171466
255,340,0.005219856309130831
255,345,0.009202555050888944
255,350,0.00806981196219274
255,355,0.004469297165510831
255,360,-0.001810971482092606
255,365,0.013884751625930804
255,370,0.003083578974770605
255,375,0.0034152858502030387
255,380,-0.016449055657631516
255,385,-0.012782132579418794
255,390,0.012875311206216825
255,395,-0.0003552808869395309
255,400,0.006848151390816867
255,405,0.0006502522808850813
255,410,-0.0013320228354992145
255,415,-0.006160359917022475
255,420,-0.0071137498234195295
255,425,0.0010524396551889414
255,430,0.002494566185338041
255,435,0.004799591323343158
255,440,-0.0163914579229686
255,445,-0.011541620429721238
255,450,-0.020091381296538216
255,455,0.0028613710294217907
255,460,0.005746265249481895
255,465,0.0043588784813593405
255,470,0.003135495868093989
255,475,0.02457702385755853
255,480,0.014172271005030383
255,485,-0.006297679132386214
255,490,0.007270937611799088
255,495,0.005594361121708099
255,500,0.005403765049226369
255,505,-0.01026094642253115
255,510,-0.007078358422022015
255,515,-0.006716148232185862
255,520,-0.0003257113572827306
255,525,0.0006709033620431607
255,530,0.001093680134032515
255,535,0.01107030162235503
255,540,-0.005049278338814439
255,545,0.00822417223234027
255,550,0.001353508023615338
255,555,0.0050000155871114905
255,560,0.007527562107878047
255,565,-0.018345552111182956
255,570,0.0072057650428175805
255,575,-0.008893411641929918
255,580,-0.00515752413754714
255,585,-0.009992434146917485
255,590,0.008895477696359693
255,595,0.008489336744290211
255,600,-0.003748974530521982
260,300,0.0028509110652803933
260,305,0.009102874705365336
260,310,0.01869202099175699
260,315,0.0005576740549994181
260,320,0.005232537889622985
260,325,0.00804177561308659
260,330,-3.1139058892110306e-05
260,335,0.0016104757839536308
260,340,-0.0051882838370210516
260,345,0.01486924003517098
260,350,0.007042739717357624
260,355,0.0044533112603986555
260,360,-0.022429025050248755
260,365,0.008553909659556807
260,370,-0.014382632497022275
260,375,-0.009136216305979133
260,380,-0.0019808619271674704
260,385,-0.00622897251251929
260,390,0.017055644984986743
260,395,0.0015714080691706643
260,400,-0.005613199606467462
260,405,-0.009763526392151587
260,410,-0.00036180163858280206
260,415,0.006411221565540733
260,420,-0.005522184479344052
260,425,-0.0028739095062144692
260,430,0.015577709828969015
260,435,0.002384968766244899
260,440,0.014173994583164437
260,445,0.0017641705384278557
260,450,0.00799516501126375
260,455,-0.016269453820190485
260,460,0.019369493897428546
260,465,0.00667744689979097
260,470,-0.00883968991046023
260,475,-0.009404036598143138
260,480,0.014878236949236578
260,485,-0.011099846670528216
260,490,0.007861214654085607
260,495,-0.01227847265273293
260,500,-0.0017433833210002258
260,505,0.011601755688830071
260,510,-0.010449860203883457
260,515,9.155784395971055e-05
260,520,0.005404405792654411
260,525,-0.00896947700476167
260,530,0.005515069015017766
260,535,-0.010138597902349989
260,540,-0.0036889918479246775
260,545,-0.004360781410522795
260,550,-0.0036484208447648556
260,555,0.008273564207291941
260,560,-0.006519493372133135
260,565,0.0036664319572911283
260,570,-0.004754300946440961
260,575,-0.00229271975227667
260,580,0.022603057704247306
260,585,-0.002558610690996292
260,590,-0.023564870953590677
260,595,-0.0013637530013803532
260,600,0.00494928557777033
265,300,0.0038617369729991467
265,305,0.01188167695348526
265,310,-0.01132042714485099
265,315,0.027972874486096075
265,320,-0.010691163059832566
265,325,-0.014573235829977261
265,330,0.017139895157655523
265,335,0.004545852920995694
265,340,-0.00046916188732942115
265,345,0.0008792666712439119
265,350,0.014318791312346023
265,355,0.015086240653061281
265,360,-0.021004472608402474
265,365,0.01824712725191779
265,370,-0.01162079979320381
265,375,0.004011469941027811
265,380,-0.013583069747391905
265,385,-0.005139216707655206
265,390,-0.010716797436333157
265,395,0.012961108009063407
265,400,0.014718548672712335
265,405,0.020185915624658317
265,410,0.009928533680734581
265,415,0.01701377335630339
265,420,-0.00903758371596699
265,425,-0.0035745598592674286
265,430,-0.01070338142678565
265,435,-0.014245860399917121
265,440,-0.010629373773107121
265,445,-0.008059952050642643
265,450,0.009543257768224945
265,455,0.0004690901284750519
265,460,0.0052995489220099504
265,465,0.005397198394190922
265,470,-0.005923663219140936
265,475,-0.004614568996394233
265,480,-0.006748544370778416
265,485,-0.020686632877391285
265,490,-0.00933800333742598
265,495,0.01703780594448939
265,500,0.00674063563163099
265,505,-0.0032431589391048337
265,510,-0.016886320221794572
265,515,0.005984604134837143
265,520,0.014015340570190844
265,525,0.000856744332838727
265,530,0.0012816739083603606
265,535,-0.010126768528053335
265,540,-0.009794861639991019
265,545,0.014128200869913482
265,550,0.0038607141462839284
265,555,0.01393152069741275
265,560,-0.01199591082469915
265,565,0.012596340582801593
265,570,-0.016594523848506598
265,575,0.0036854756878688644
265,580,-0.004316955322220296
265,585,0.005898534014397367
265,590,-0.008903758682575414
265,595,-0.010287965308789844
265,600,0.009227471582821483
270,300,0.02190049012023821
270,305,-0.001331491079147623
270,310,0.005626496388130935
270,315,-0.002368076726464611
270,320,0.009882251356471687
270,325,0.015702796612006225
270,330,-0.00515217450623405
270,335,0.027272045814262638
270,340,0.0073173448552007
270,345,0.01067645216245583
270,350,0.010786253676178324
270,355,0.014910332255111038
270,360,0.018404798162155546
270,365,-0.0036778315528793546
270,370,0.026868290070821043
270,375,-0.009959703242024349
270,380,0.0057246489419894575
270,385,0.013876797644065783
270,390,0.008000474503613122
270,395,-0.006083539880178367
270,400,0.0014285658837714555
270,405,0.010358926914420686
270,410,-0.00042351517817115205
270,415,0.006316893451702611
270,420,0.019288222786817237
270,425,-0.0025225456156436825
270,430,-0.005502416308135684
270,435,0.008621282645870271
270,440,0.00025658977503433114
270,445,-0.00622570045509086
270,450,0.008721237957867696
270,455,0.01735658790009592
270,460,-0.004383574122930124
270,465,-0.008636776348565037
270,470,-0.00283751870707535
270,475,-0.010984196367125852
270,480,-0.004695562337241429
270,485,-0.0014855246771868608
270,490,-0.006714404754375014
270,495,0.006120245087430867
270,500,-0.005609672942052569
270,505,-0.0012310783710517117
270,510,0.024396294158145763
270,515,-0.005728421777011454
270,520,0.006112425827051113
270,525,0.0058586987141295765
270,530,0.0015346559050540096
270,535,-0.002249327874896809
270,540,0.005728952971389313
270,545,-0.005241403385472451
270,550,0.007756636122384632
270,555,-0.005317143857242603
270,560,0.004224994238485562
270,565,-0.013137557381467125
270,570,-0.004826419792390211
270,575,-0.005204754594249496
270,580,-0.006781482094435461
270,585,0.010266217353198262
270,590,-0.012914399803401715
270,595,0.008820593966447542
270,600,0.007036769174617289
275,300,0.010730911535579044
275,305,0.013138796508774848
275,310,-0.007334261826762115
275,315,0.018004387814639707
275,320,0.0073562976282277445
275,325,0.018597436692178743
275,330,0.034593384708430805
275,335,0.03339410459842105
275,340,0.05013061760348886
275,345,0.03201908264829473
275,350,0.04026800105298514
275,355,0.03229830973213015
275,360,0.035796156031892006
275,365,0.027976389564921635
275,370,0.03267758520310732
275,375,0.03565793729783015
275,380,0.025908875468588922
275,385,0.013199168064177084
275,390,0.001393188264296785
275,395,0.005436242233968839
275,400,0.02011249835424202
275,405,-0.005576229150255354
275,410,-0.011908925076437848
275,415,0.01601599252388075
275,420,-0.010552902814668492
275,425,-0.00438160223396577
275,430,-0.014528556024461433
275,435,-0.0018612358967876126
275,440,-0.0014398201076009317
275,445,-0.0016799457651263496
275,450,0.008472843008363174
275,455,0.0013616600807332116
275,460,0.010752981510559596
275,465,-0.006156711755502179
275,470,-0.01409312583532879
275,475,0.0006484467749201486
275,480,0.008336954472334977
275,485,-0.018378372955146535
275,490,-0.011814837211045398
275,495,0.02738445744622022
275,500,0.004898246376716605
275,505,0.01107019314072353
275,510,0.00933650668781145
275,515,-0.0022632903344878127
275,520,-0.019085402804095077
275,525,0.017511230832500425
275,530,0.011341731340610674
275,535,-0.005467849145652399
275,540,-0.010519970073724646
275,545,-0.0067059987730640315
275,550,0.007545163447183855
275,555,-0.0064220678013503845
275,560,0.0018501546166913119
275,565,0.0024110542244407496
275,570,0.008257965565356384
275,575,0.01632530746325184
275,580,0.002409632326251585
275,585,0.01547305492758914
275,590,-0.0012353679444638294
275,595,0.017857680345666233
275,600,-0.007016121312121707
280,300,0.028089364393327376
280,305,0.004329842531890092
280,310,0.04176618250703207
280,315,0.025406409121967947
280,320,0.050632561136538044
280,325,0.06446014241876283
280,330,0.08585875653101008
280,335,0.0976176730990997
280,340,0.1344386487849932
280,345,0.1536017693283857
280,350,0.11725465127378679
280,355,0.130770575457046
280,360,0.11168259043746682
280,365,0.09067837311222193
280,370,0.06768747067274812
280,375,0.05914781893968278
280,380,0.036130345915766825
280,385,0.044503541324590196
280,390,0.017093285232087637
280,395,0.011444541983850993
280,400,0.008665592610666408
280,405,0.0010093026173921575
280,410,0.012613015465007753
280,415,0.003749598359893397
280,420,0.002498125935478161
280,425,0.003190481043402354
280,430,-0.003450333473030269
280,435,0.005249658200357144
280,440,0.0024230646556955096
280,445,0.0009549640282831384
280,450,-0.002558223876452117
280,455,0.0045895064547784555
280,460,-0.0036807543397519796
280,465,-0.00023490397806133771
280,470,0.002185558356040181
280,475,0.025781740788448814
280,480,0.008566245031812282
280,485,-0.021368495113879785
280,490,0.0006048209113225285
280,495,0.010546263742268205
280,500,-0.0001926291366165078
280,505,-0.008484112991621082
280,510,-0.0018223400698528759
280,515,0.0019662425565860086
280,520,0.007806955513507976
280,525,-0.013271242775157208
280,530,-0.0030288113359991046
280,535,0.022625811105905884
280,540,-0.010258088303796003
280,545,-0.013689875011757249
280,550,0.002470134799868677
280,555,3.4301278993852756e-05
280,560,-0.013489476546352564
280,565,0.013590902565943952
280,570,0.006595523100205866
280,575,-0.003237881295444867
280,580,-0.005347584406731116
280,585,-0.0129890059785875
280,590,0.010567536577636281
280,595,-0.006930291351372158
280,600,-0.001679795594926955
285,300,-0.006136734568562813
285,305,0.03408155028786786
285,310,0.043907012429070726
285,315,0.05622595655780332
285,320,0.11160781434038253
285,325,0.16823166877170048
285,330,0.19258863392801664
285,335,0.2509094652894987
285,340,0.26835867499310834
285,345,0.3052631570870255
285,350,0.3026774655261544
285,355,0.31234481343162596
285,360,0.27788003354718926
285,365,0.24123529811709774
285,370,0.21387331506649487
285,375,0.15036706466669902
285,380,0.10200124221606721
285,385,0.0666807906993198
285,390,0.0621861296648598
285,395,0.04370400018589971
285,400,0.023594240589094866
285,405,0.014219738423640623
285,410,0.004715126293447265
285,415,-0.02487052010160495
285,420,-0.0006211925566121142
285,425,0.01741138392225329
285,430,-0.004915721133500164
285,435,-0.0008498404014650694
285,440,-0.010106724611184755
285,445,0.005158780946035852
285,450,-0.0033005180298684073
285,455,-0.004556229554442856
285,460,-0.023428719174435488
285,465,0.006140553407970252
285,470,0.004485365283710043
285,475,-0.027464517337666337
285,480,-0.00637554188887012
285,485,0.015434332200397641
285,490,0.001151562983229534
285,495,0.006880348867941966
285,500,0.0021007131137407843
285,505,0.00950435044494074
285,510,-0.004207712884150836
285,515,0.006643132554773845
285,520,0.004048238703546877
285,525,-0.0077018279262115776
285,530,0.006516443498367554
285,535,0.004555282460298906
285,540,-0.012596781084027356
285,545,-0.002254011508090204
285,550,0.013031283172733965
285,555,-0.013270763943461973
285,560,-0.012429753143207808
285,565,0.007338302275588432
285,570,-0.006722142633438293
285,575,-0.004109482551988782
285,580,0.0006342664503221226
285,585,-0.0064875188941331185
285,590,0.0007803828791089765
285,595,0.008914929048675564
285,600,0.01684347530257344
290,300,0.024464301324593245
290,305,0.044224958819988745
290,310,0.09315154785420303
290,315,0.1350749204131052
290,320,0.19772182674711175
290,325,0.2569884617159626
290,330,0.38700605856204456
290,335,0.43552931033641024
290,340,0.5339746443088919
290,345,0.5781558619383977
290,350,0.5923729069460875
290,355,0.5932740343860804
290,360,0.5381152815549266
290,365,0.45592198084114793
290,370,0.3703705025313187
290,375,0.2802135247253621
290,380,0.21013059569675466
290,385,0.11945227079583148
290,390,0.08040060230054384
290,395,0.06529314562516493
290,400,0.013275777952766377
290,405,0.015703717381129877
290,410,-0.008573435107698792
290,415,-0.00241431431641526
290,420,0.006201304913007688
290,425,-0.0020497467971202195
290,430,-0.004415456625661214
290,435,0.010721089687951657
290,440,0.006663746095322505
290,445,0.0018182098627150273
290,450,-8.180441893001128e-05
290,455,-0.008475080863272737
290,460,0.012454330201100603
290,465,-0.020350464536641428
290,470,0.005135365518397706
290,475,0.006991341785649428
290,480,0.013222525371169695
290,485,-0.022123424206364473
290,490,-0.007763886635634835
290,495,-0.002657542676401811
290,500,-0.008619506260436345
290,505,0.015618052850560466
290,510,-0.014827807097213055
290,515,0.0015324062090384168
290,520,-0.0011560055959145246
290,525,-0.0005261073249801687
290,530,0.005517684769470357
290,535,0.01692320585927172
290,540,-0.006058407643230486
290,545,0.0037466207496963744
290,550,0.00818805703825708
290,555,-0.006127341173953639
290,560,-0.009807212368046271
290,565,0.0003235923342577723
290,570,0.014906728565286072
290,575,0.0005190935771278426
290,580,-0.01651913061623333
290,585,-0.00010238939371955614
290,590,-0.012760729301677397
290,595,-0.0071722448079994975
290,600,-0.0007891659298188916
295,300,0.024126475273106508
295,305,0.07907514007756328
295,310,0.12321825515620023
295,315,0.1784017569334434
295,320,0.2776658500007904
295,325,0.40788777535706955
295,330,0.5169785866237211
295,335,0.6712752611398691
295,340,0.7868599551151568
295,345,0.8496233004937518
295,350,0.8854803869009331
295,355,0.855530860865199
295,360,0.7681166222782144
295,365,0.6719619417904931
295,370,0.5414477649396044
295,375,0.4066931117390182
295,380,0.26635159613570564
295,385,0.1949680295086803
295,390,0.11711057440834767
295,395,0.07640239498661236
295,400,0.05493717028094631
295,405,0.020720993811862903
295,410,0.020390989330725313
295,415,0.012743902006778158
295,420,0.005870115498670841
295,425,0.00648875585578778
295,430,0.017077862559488073
295,435,0.006105255929404521
295,440,0.007474626263147565
295,445,0.015237141689150493
295,450,0.0029858160156308613
295,455,-0.0028932710332342498
295,460,0.0018439097465391616
295,465,0.007869564559999705
295,470,-0.008789976238269893
295,475,0.015068723899387989
295,480,0.005560806524531037
295,485,0.0035131674613961194
295,490,0.006370710102574281
295,495,-0.0015143526645019112
295,500,-0.006446477043299292
295,505,0.0051037657399261305
295,510,0.005539633396310393
295,515,-0.007002690513828483
295,520,0.019272499001116647
295,525,-0.010681977469702108
295,530,0.007666110560144168
295,535,-0.006434746112935706
295,540,0.004906335943601916
295,545,-0.002486983055084789
295,550,-0.0005586441353453268
295,555,0.0021803767725310738
295,560,0.01621429226860858
295,565,0.002850738703235493
295,570,0.01356710354555288
295,575,-0.02029823539955544
295,580,0.0008351359860568597
295,585,0.02165564731577882
295,590,0.006486085896016863
295,595,-0.002240220202908421
295,600,0.003316547864232524
300,300,0.04551967198649385
300,305,0.07055985751947483
300,310,0.13780494551682937
300,315,0.20092192008376103
300,320,0.32718671393715587
300,325,0.4621751594353391
300,330,0.6134249782135877
300,335,0.7429391275683745
300,340,0.8816523936577331
300,345,0.9617221386520186
300,350,0.9837806950176131
300,355,0.9731430716043041
300,360,0.8704652373904156
300,365,0.7542467162135634
300,370,0.6028008193198136
300,375,0.4483851678481935
300,380,0.33541703053462707
300,385,0.23413038425109098
300,390,0.16693271584565444
300,395,0.1076494250143024
300,400,0.05445080181622807
300,405,0.04542828291228958
300,410,0.04224961737229972
300,415,0.03615029207851461
300,420,0.03389269924850437
300,425,0.02243732224813222
300,430,0.018598685183247022
300,435,0.03957738910212978
300,440,0.010946901646388266
300,445,0.015310720382900113
300,450,0.013874724516372202
300,455,0.011472157457047608
300,460,0.018365646905995955
300,465,-0.00039426552633704814
300,470,0.0193277831125966
300,475,0.00592855879214267
300,480,-0.0029500316532535035
300,485,-0.002693671170041083
300,490,-0.0006529446322734393
300,495,0.005268782353897938
300,500,-0.004179563246437001
300,505,-0.025504405791841867
300,510,-0.003505986773757769
300,515,0.005243751952663498
300,520,-0.001565637461870533
300,525,-0.0028932143850731247
300,530,-0.0008142312438962158
300,535,-0.005755440902846164
300,540,-0.018089066012987796
300,545,0.004604071384446874
300,550,0.005627553171582737
300,555,-0.0009148782065870446
300,560,0.016827736048056676
300,565,0.011064380233852353
300,570,0.006268139374078478
300,575,0.012073547270211331
300,580,0.011490219239504029
300,585,0.004430884305957757
300,590,0.006906325530150986
300,595,0.012200230487107899
300,600,0.011741506413539665
305,300,0.048234939807514275
305,305,0.0728679373621726
305,310,0.125375007512203
305,315,0.19044784860039954
305,320,0.2840438531607764
305,325,0.41285479544797654
305,330,0.5269283839543307
305,335,0.655566582452135
305,340,0.7663536210858023
305,345,0.8629893073443106
305,350,0.875462441265837
305,355,0.872985914418353
305,360,0.8008101805211444
305,365,0.6679150160370194
305,370,0.5470838283658297
305,375,0.432078156527683
305,380,0.3138808986648418
305,385,0.23065091704728932
305,390,0.1781963016932583
305,395,0.11383350909483456
305,400,0.11042904543401252
305,405,0.09392782153021795
305,410,0.12857231887233064
305,415,0.10954682855814565
305,420,0.10674267002288772
305,425,0.11159258405869074
305,430,0.09426603537969264
305,435,0.06789345657193727
305,440,0.07129022478841338
305,445,0.05178496803904694
305,450,0.05578456241347759
305,455,0.036901841405362144
305,460,0.03354250632385843
305,465,0.019629399733493626
305,470,0.01350053806434164
305,475,0.02153226127670134
305,480,0.010168574703889453
305,485,0.01750485286281177
305,490,0.012377981425545699
305,495,-0.0068276597446803155
305,500,-0.005057487866386748
305,505,0.003901008821876978
305,510,-0.0013921373805022856
305,515,0.013811234292719927
305,520,-0.00018283397306208745
305,525,-0.0059666399287850854
305,530,0.01674156956086953
305,535,-0.007180796878294327
305,540,0.0015319810105924123
305,545,0.00377306616714227
305,550,-0.02148096373867506
305,555,-0.002389888340135977
305,560,0.004034710677615443
305,565,0.014402414221700955
305,570,0.013166418148111758
305,575,-0.027132878539229625
305,580,0.0068842537531818085
305,585,-0.011420510227883002
305,590,0.01879664958354152
305,595,-0.007975111505255554
305,600,0.013560795760809602
310,300,0.02527133365837964
310,305,0.03730741764407591
310,310,0.08761397252835497
310,315,0.12628130253611689
310,320,0.2010652671949916
310,325,0.28281842809050173
310,330,0.37080559129524265
310,335,0.44322967253287016
310,340,0.5177239537123813
310,345,0.5986510988958942
310,350,0.6082054739559175
310,355,0.5987953585608359
310,360,0.5638487626498578
310,365,0.49065670574104586
310,370,0.42369891943353205
310,375,0.33893848234088125
310,380,0.2829527648967148
310,385,0.24552528283270963
310,390,0.2055880482822087
310,395,0.19257647098148165
310,400,0.22903020649700057
310,405,0.2579110747481326
310,410,0.28173821790689946
310,415,0.25755354630181293
310,420,0.2682426029197482
310,425,0.28568268306358624
310,430,0.2346808473343329
310,435,0.23761100861069617
310,440,0.20921926345187775
310,445,0.17545606316852969
310,450,0.12904423223495787
310,455,0.09480185690378648
310,460,0.0885345603455279
310,465,0.048861994637982735
310,470,0.0344678277568861
310,475,0.017857622965242778
310,480,0.014738291502704821
310,485,0.006537608947619957
310,490,0.00588562045034656
310,495,0.0006763062622763107
310,500,-0.013397160552905988
310,505,0.00812421971774886
310,510,0.004583155720606052
310,515,-0.017725986880612898
310,520,0.010830864625842212
310,525,0.0021391736578129953
310,530,0.010447801700983835
310,535,-0.0023062168537167707
310,540,0.0025675798071419296
310,545,-0.0022080187092007627
310,550,0.0073573004453076525
310,555,0.005765180574033434
310,560,0.011760170831203134
310,565,-0.013143079555095
310,570,0.0005368842537778157
310,575,0.01232437859559213
310,580,-0.009982750180498517
310,585,-0.0011675959476360718
310,590,0.010567891879479796
310,595,-0.003022518466425351
310,600,-0.010415671442334374
315,300,0.018376674000347815
315,305,0.016720788514351943
315,310,0.03928217351854264
315,315,0.0642711643733806
315,320,0.10252300117553127
315,325,0.14976536438837967
315,330,0.20373330199504228
315,335,0.2356729067795315
315,340,0.3004909807831394
315,345,0.30497403195622363
315,350,0.3223997120750469
315,355,0.32935773769879856
315,360,0.3101282570700142
315,365,0.2784673201218404
315,370,0.2838417288994081
315,375,0.23081966598268797
315,380,0.254234007462211
315,385,0.26877273681332897
315,390,0.2794156790026636
315,395,0.32315080510914157
315,400,0.3706523182173619
315,405,0.4260821855330175
315,410,0.48483651523214133
315,415,0.48532798296408713
315,420,0.5149122191193688
315,425,0.4845491231252304
315,430,0.46350889246207716
315,435,0.4205097180573297
315,440,0.3617703699733233
315,445,0.29070151115733905
315,450,0.24466387732074021
315,455,0.18015820362204868
315,460,0.1509072324909062
315,465,0.10512623434972194
315,470,0.044701754124399216
315,475,0.0520415556754387
315,480,0.04945919245629928
315,485,0.035413243064366925
315,490,0.014045071226263786
315,495,0.010064085016074061
315,500,-0.0030147386623328126
315,505,-0.012614492679329528
315,510,-0.014290131855082017
315,515,0.016196128112957703
315,520,-0.005878148481930661
315,525,-0.009911150896566414
315,530,-0.005136045017464872
315,535,-0.00860635714321246
315,540,-0.002934286284969748
315,545,0.018848126690069442
315,550,0.005604440739084783
315,555,-0.0006892416803236109
315,560,0.005831666026498305
315,565,-0.007382171079667335
315,570,-0.006038762678239349
315,575,0.0218787915375915
315,580,-0.011589430192122871
315,585,0.0014825040872257515
315,590,-0.001073019995653479
315,595,-0.014469251432357978
315,600,0.002051551163604942
320,300,0.0037481914318847963
320,305,0.027162007630518927
320,310,0.012063081960413037
320,315,0.03195930451484495
320,320,0.04662939087399927
320,325,0.06283038184780419
320,330,0.08086868914928728
320,335,0.09425007293231186
320,340,0.12890016192806472
320,345,0.1556651850994118
320,350,0.1599030894850413
320,355,0.14112943960270458
320,360,0.1629745625158557
320,365,0.1557503965409071
320,370,0.15501434655103932
320,375,0.18129087369301175
320,380,0.200668839280933
320,385,0.245132587260951
320,390,0.3115448284597102
320,395,0.376082520600502
320,400,0.4596997844759284
320,405,0.5072525292568454
320,410,0.5593673823138109
320,415,0.584860207918806
320,420,0.5830271438857217
320,425,0.5813965371890473
320,430,0.5473422693495423
320,435,0.4967538322993764
320,440,0.420574947818015
320,445,0.3641447608633798
320,450,0.2871850574391449
320,455,0.216397482418213
320,460,0.15750744959832091
320,465,0.13011336210820898
320,470,0.07897752540733054
320,475,0.060635633469857175
320,480,0.027644673703876212
320,485,0.02386475180146159
320,490,0.012331458404942217
320,495,0.028181036017648133
320,500,0.0028185271742714587
320,505,-0.014903901962689097
320,510,-0.005857563536202414
320,515,0.009405890217780426
320,520,0.006097140436492297
320,525,-0.004596242801440023
320,530,-0.003254201824322666
320,535,-0.009958924994737202
320,540,-0.011912034707749306
320,545,-0.010569292383589123
320,550,-0.004848239181753791
320,555,0.006229681760355773
320,560,0.022256818741812963
320,565,-0.020311520112603735
320,570,-0.01892407609501867
320,575,0.0029279936002113323
320,580,-0.0036285411119325755
320,585,-0.007394092447551902
320,590,0.00029070613766999016
320,595,-0.00432598455814785
320,600,-0.002758495354719121
325,300,0.003895569330937273
325,305,0.008688489827706682
325,310,-0.0018423651293546272
325,315,0.017398182167011764
325,320,0.0031788488830806205
325,325,0.013856341587409265
325,330,0.022127995973932467
325,335,0.03726343002028609
325,340,0.06131972445470374
325,345,0.038190321368554006
325,350,0.045717805730867755
325,355,0.06425033628518566
325,360,0.05921025963710215
325,365,0.0630437725618826
325,370,0.08126418801218552
325,375,0.11587372575641992
325,380,0.15264858777447785
325,385,0.1833657666287241
325,390,0.2530794504724005
325,395,0.31721279489211707
325,400,0.36303742643721326
325,405,0.4039074433731192
325,410,0.45033998654557633
325,415,0.4780132426145223
325,420,0.49819371450569977
325,425,0.48770583729626776
325,430,0.4431261025055846
325,435,0.39987803803421396
325,440,0.35608814469605293
325,445,0.29035602772536995
325,450,0.23489614188153754
325,455,0.19924575107808037
325,460,0.15081842611577975
325,465,0.08113578211443431
325,470,0.059972846806798125
325,475,0.030557253819022488
325,480,0.024259609607010256
325,485,0.03253931098855164
325,490,0.002453920158561106
325,495,-0.0030904333400648696
325,500,-0.0009394727284623107
325,505,0.014066239437954308
325,510,-0.0016697680885052902
325,515,0.004016626169551983
325,520,0.006768750967643379
325,525,0.0020945310278481987
325,530,0.010938945109850566
325,535,0.012888482180392421
325,540,0.017805021185074946
325,545,0.009890036038730517
325,550,0.0010027911326870211
325,555,0.008132367806793871
325,560,0.001846383642537162
325,565,-0.0002319150124845497
325,570,0.002213498274520056
325,575,0.003980558005221188
325,580,-0.007391061364174488
325,585,-0.01800406755380898
325,590,0.0071783679655719945
325,595,-0.0002707009886546848
325,600,-0.005265942000943045
330,300,-0.00325014036128852
330,305,-0.0010196516482308868
330,310,-0.0009817637952900349
330,315,0.016797980841513176
330,320,0.008572287034429627
330,325,-0.017010685435401136
330,330,-0.0002510742921070508
330,335,0.01595124048328828
330,340,0.014757341245395536
330,345,0.012246567512507633
330,350,-0.0014825518531079405
330,355,0.021514512202675147
330,360,0.04069918223788439
330,365,0.028616664470034657
330,370,0.07312161474207163
330,375,0.05889767534020531
330,380,0.06974906938407101
330,385,0.09108019468765562
330,390,0.13198669345898395
330,395,0.1762612136192005
330,400,0.1912597995669246
330,405,0.24595198221884174
330,410,0.2687878816618942
330,415,0.2568206266882525
330,420,0.2798821624954337
330,425,0.26670866582685826
330,430,0.2553003020355333
330,435,0.21679064502253456
330,440,0.2071759097167624
330,445,0.1777030500239429
330,450,0.13146733423551948
330,455,0.10887150599592557
330,460,0.06771212748226361
330,465,0.07314587339747051
330,470,0.034761786186596984
330,475,0.033529590405958404
330,480,0.013578640942698663
330,485,0.011195932110994277
330,490,0.011664066651466515
330,495,-0.0021829601321401246
330,500,0.003225931054964698
330,505,-0.011170266410709465
330,510,-0.0068401239629255215
330,515,0.0018230705296832038
330,520,-0.008707394815291316
330,525,-0.0004888510784465696
330,530,0.014779517673605493
330,535,0.0022193582057943614
330,540,-0.0012632530394710323
330,545,-0.013272291345084807
330,550,-0.00503213234864418
330,555,-0.0074704947934287995
330,560,-0.030125570350681176
330,565,-0.01570786150142789
330,570,0.004160874271708157
330,575,0.0027810594323392185
330,580,-0.01625914393056099
330,585,-0.011770637878491854
330,590,0.005579773447982791
330,595,0.009311777058345459
330,600,-0.0004406891735461925
335,300,0.008834109843626502
335,305,-0.020497570804871888
335,310,-0.002070566431505585
335,315,0.012821638478531003
335,320,-0.0035310926528198585
335,325,-0.0014624642570929525
335,330,-0.00934808487953429
335,335,-0.009808010175665391
335,340,0.008500899161670482
335,345,-0.0021294425991585497
335,350,0.01935537896635305
335,355,-0.0028653741791294686
335,360,-0.009348983808275167
335,365,0.01776672977975091
335,370,0.0067033240836735265
335,375,0.0294665197360607
335,380,0.025556271335343255
335,385,0.05208625709389012
335,390,0.051516980162205246
335,395,0.05048736907510848
335,400,0.06959440841800729
335,405,0.10061456757314997
335,410,0.10519601497531811
335,415,0.10693308038912301
335,420,0.10139299343460922
335,425,0.10752077515390188
335,430,0.10234660326306165
335,435,0.10485588331804066
335,440,0.07350829650603934
335,445,0.06430152391292283
335,450,0.048414644871616425
335,455,0.023561679832769515
335,460,0.029766968370296545
335,465,0.008141181434325842
335,470,0.009579287554056338
335,475,0.0029497828715378434
335,480,0.03158538315617624
335,485,0.007124153725849756
335,490,-0.010434105002660059
335,495,0.009217293532060076
335,500,0.007223469024469563
335,505,-0.002553540278677032
335,510,0.0004219225184039448
335,515,-0.01252904957751099
335,520,-0.00398418378518877
335,525,0.0063185556341477855
335,530,0.02035355416718487
335,535,0.007813214075654419
335,540,0.0031489486248637926
335,545,0.0072053445077254865
335,550,-0.006612690024981582
335,555,0.005307727148030911
335,560,-0.007398284618191797
335,565,-0.006579865651604217
335,570,0.008997753153871786
335,575,0.0060193699474770206
335,580,-0.002507256889002169
335,585,-0.007644841952950263
335,590,0.008786569428551237
335,595,-0.0034829513326586807
335,600,-0.005922470926052929
340,300,0.015071661299742687
340,305,-0.00010167165679777587
340,310,-0.005845745481131684
340,315,-0.022499347049778545
340,320,-0.00640480048594673
340,325,-0.0011252794631675467
340,330,0.005788383659335305
340,335,0.006255697174422094
340,340,0.006976687555584252
340,345,0.012597301009214239
340,350,0.006331320405192015
340,355,-0.001196350821868632
340,360,0.015990256364168762
340,365,0.00772028110076599
340,370,0.0207422489991015
340,375,0.007708517731990742
340,380,0.019124375583714492
340,385,0.007272436397797366
340,390,0.013826555108092371
340,395,0.011137187012083976
340,400,0.00219011355747074
340,405,0.02316646314566772
340,410,0.03254199215807357
340,415,0.032657471481219925
340,420,0.04248532475084618
340,425,0.01899986854975291
340,430,0.04701472061031827
340,435,0.01993250980059154
340,440,0.013088750005611906
340,445,0.013202787518407262
340,450,0.021668368446140666
340,455,0.014668949975760105
340,460,-0.0007744432449140366
340,465,0.006560592339979532
340,470,0.008207678723028517
340,475,0.016180597529463492
340,480,0.0006234915243588604
340,485,0.010342478864292261
340,490,-0.002750865577854579
340,495,-0.010184332826067894
340,500,0.002021442854063781
340,505,0.020574945938575038
340,510,-0.010659398018008316
340,515,-0.007810666142595383
340,520,-0.00011746932450316952
340,525,0.006370026501184789
340,530,-0.001804953739785149
340,535,-0.00010516564410096144
340,540,-0.007092715636436878
340,545,0.012056962215927369
340,550,-0.0027358084634355657
340,555,-0.0038940215247809913
340,560,0.010665404220881627
340,565,-0.005216378794647326
340,570,0.004860207660876162
340,575,-0.0149403301645027
340,580,-0.006737963530187801
340,585,0.013316893300719767
340,590,-0.004033225710978615
340,595,-0.00852227517400097
340,600,0.014299766471014944
345,300,0.0031383218356291014
345,305,0.012649086846091225
345,310,-0.00024044220873979162
345,315,0.00041959255958497654
345,320,-0.010591496780918513
345,325,0.002613384791933361
345,330,-0.019607513484750774
345,335,-0.007098840887251758
345,340,-0.010492746570963614
345,345,0.0064472002747606545
345,350,-0.00822721541691314
345,355,-0.01654048820599821
345,360,0.013729774804111198
345,365,0.006904666346194828
345,370,-0.004123752820443847
345,375,-0.005421671368060792
345,380,0.01276966441254461
345,385,0.014115018304349606
345,390,-0.0017555952096455596
345,395,0.002572636759926576
345,400,-0.004154103269864637
345,405,0.021936019580464376
345,410,-0.008645391794099785
345,415,0.004603517613922507
345,420,5.836122652225651e-05
345,425,0.023200818075379267
345,430,0.013501644094394149
345,435,0.012274441319380743
345,440,0.002571003528050277
345,445,-0.0018775851780317913
345,450,-0.015511220101711382
345,455,0.006563810257919026
345,460,0.009367296111868257
345,465,-0.004157687723586721
345,470,0.005911966788939376
345,475,-0.008951303913837375
345,480,0.013645108175229912
345,485,-0.001669907366641653
345,490,-0.012609669168375333
345,495,0.004984599796418383
345,500,0.008722044704696315
345,505,-0.005522261641680652
345,510,-0.004582052235367441
345,515,0.0002852300886607833
345,520,-0.015481166806037134
345,525,-0.004922740712565197
345,530,0.0036188584137846983
345,535,0.019562731996882236
345,540,-0.0007048768575429284
345,545,0.0007544283987901116
345,550,-0.004202554481606979
345,555,0.01042460758156988
345,560,-0.015885041182798328
345,565,-0.006258240300531801
345,570,0.007957934235617827
345,575,0.0005064393506119706
345,580,-0.0015065426826054917
345,585,-0.016867457397262527
345,590,-0.0055223467019945086
345,595,-0.006336272313585813
345,600,-0.016092443297037195
350,300,-0.0032394559884357066
350,305,-0.0008411046042391109
350,310,-0.01398986224268231
350,315,-0.01406738832436591
350,320,-0.00591788786260296
350,325,-0.005420478842160331
350,330,0.0007977800079345175
350,335,-0.0015709437303536617
350,340,-0.00751472136922979
350,345,-0.013321219867628993
350,350,0.006854297416059053
350,355,-0.003946425134448343
350,360,0.008998355054702952
350,365,-0.005928008286509522
350,370,-0.01695007086303941
350,375,0.011018716808719525
350,380,-0.00912936268485698
350,385,0.0018400145490102759
350,390,0.008143740158031305
350,395,0.001029690114361948
350,400,0.003909708381151843
350,405,-0.00407572811323642
350,410,-0.01248335714892167
350,415,0.020619619889239816
350,420,0.007955771215026665
350,425,0.006371950678582378
350,430,-0.016645656879675813
350,435,0.019076504587171726
350,440,-0.01193090512559782
350,445,-0.0033988063611088562
350,450,-0.0012706370404900844
350,455,0.014564217015825541
350,460,-0.002785040246222296
350,465,-0.018671689454701795
350,470,0.007964021397474864
350,475,0.02065614368821463
350,480,0.0038773213405345727
350,485,0.007988539807817253
350,490,0.00972523919493587
350,495,-0.0001663210348602914
350,500,0.007275272586591898
350,505,0.025246779479782433
350,510,0.004817101331767027
350,515,-0.0017987099161717918
350,520,0.005972082622283658
350,525,-0.005887827154910408
350,530,-0.010469265757215835
350,535,-0.008355565852684554
350,540,-0.009542605884630103
350,545,-0.006407307870715924
350,550,0.009951250522619174
350,555,-0.013692673678663858
350,560,-0.015788175826188217
350,565,0.027525607683382268
350,570,0.006497622174420162
350,575,-0.001320592075289378
350,580,-0.008258053203065371
350,585,0.0007936333743468613
350,590,0.01422208531642616
350,595,0.016038302539857677
350,600,-0.015473499861050757
355,300,-0.010615439959203908
355,305,-0.010422932997572135
355,310,-0.0015451251182478402
355,315,-0.0025450727018985764
355,320,-0.014045082796995468
355,325,0.01152649414891874
355,330,0.003311106788457179
355,335,-0.00868744436217763
355,340,0.009761600611570198
355,345,0.0061288160360664255
355,350,-0.006528743056721725
355,355,-0.005486867850731894
355,360,0.002736294897202623
355,365,-0.0018139901831662802
355,370,0.005563764295667441
355,375,0.008455501086781211
355,380,0.013318454101017055
355,385,-0.010867434082280202
355,390,0.0032211248184135306
355,395,-0.01234187381543857
355,400,0.018179175968710416
355,405,0.00043635817529118394
355,410,0.013777513416706773
355,415,-0.01218591195491837
355,420,0.0076880798632253545
355,425,-0.0016230798543659978
355,430,-0.008738241034303979
355,435,0.024232527434995346
355,440,0.00735168115265393
355,445,-0.007643830431042237
355,450,-0.006255967753155615
355,455,0.0074737858792322896
355,460,0.006213297136242952
355,465,-0.002177631884693378
355,470,-0.007148680437362441
355,475,0.00674528364970113
355,480,-0.0013178748165055107
355,485,0.007873348795497349
355,490,0.008130943201975178
355,495,-0.003299752929492603
355,500,-0.008684305916649525
355,505,0.01232222551843952
355,510,-0.013864341219750914
355,515,0.006336060667189098
355,520,-0.00695889802648438
355,525,0.001533956934836313
355,530,0.005570356007329519
355,535,-0.009077683027033974
355,540,-0.010777360256631719
355,545,0.002257420455846361
355,550,-0.00399396240017479
355,555,-0.005202156479056816
355,560,-0.01840869711902913
355,565,-0.0015785591488900904
355,570,-0.0100717696221084
355,575,-0.004946971756097225
355,580,0.012304014210620912
355,585,0.0020429728917112757
355,590,0.004488802678404027
355,595,-0.010549863890043816
355,600,0.013796706040856074
360,300,-0.00937051399644932
360,305,-0.007299970872533908
360,310,0.00507267574809449
360,315,-0.0050049864323361845
360,320,0.012215117145450828
360,325,-0.02559876519097025
360,330,-0.026064181951335
360,335,0.010137106259140037
360,340,-0.01025308726676337
360,345,-0.0028944098580222064
360,350,-0.019820939480513285
360,355,0.01735247388882242
360,360,-0.0010608112492796985
360,365,-0.0003456534737778891
360,370,0.0012598983587916932
360,375,0.0031940913186311623
360,380,-0.017263145878842697
360,385,-0.00992948012490997
360,390,0.009363323066698475
360,395,0.012884663797297158
360,400,-0.010157280201751726
360,405,0.012759095505859902
360,410,0.006077738160519472
360,415,0.004239611541011326
360,420,-0.005746072538454033
360,425,-0.004207143896614203
360,430,0.009376122910094533
360,435,-0.012006660051796405
360,440,0.0030218499418229942
360,445,0.015562602931775124
360,450,-0.02140137771174331
360,455,0.022684603765229534
360,460,0.0017835833064906651
360,465,0.007721070030888319
360,470,0.009999517897470944
360,475,-0.0012576133025420325
360,480,-0.009872631086390624
360,485,0.005815343751109225
360,490,-0.018640405045568915
360,495,0.015165064931428529
360,500,-0.01791353986792296
360,505,0.022206659435466115
360,510,0.008114521686911364
360,515,-0.0023791765423910173
360,520,0.003885537753555618
360,525,-0.03215986443860038
360,530,-0.0008025210202979198
360,535,-0.01355260630874224
360,540,-0.016233327690250578
360,545,-0.022210171121179356
360,550,-0.012892709982436176
360,555,0.024338345379616814
360,560,0.003247109050665076
360,565,-0.0012446762292531188
360,570,-0.007905933178652921
360,575,0.0016446060746779267
360,580,-0.010200563764710843
360,585,-0.010981552894312081
360,590,0.0019697681669365477
360,595,-0.006917585182012687
360,600,0.002756260845975347
365,300,0.003097114146127082
365,305,-0.0017974493162625053
365,310,0.009916406436048934
365,315,-0.0016420738581282162
365,320,0.004543185476022795
365,325,0.012534473863188131
365,330,0.004200085727218907
365,335,-0.01624212352926298
365,340,-0.0018342372816261482
365,345,-0.014596248128983991
365,350,0.008328273542721736
365,355,0.0038921823784416076
365,360,0.004931860189226414
365,365,-0.009433923352784368
365,370,0.013215898710458479
365,375,-0.0006677716346989495
365,380,0.006791584299946197
365,385,0.0006171317699761814
365,390,0.002877505240757699
365,395,0.008098641599717578
365,400,0.0196432614865621
365,405,0.0013082187235665085
365,410,0.00022728628298721376
365,415,-0.006059309105771894
365,420,-0.0004719389164518729
365,425,-0.004329885287715246
365,430,0.0028512651130578443
365,435,0.009253789649388219
365,440,0.0029922821465635813
365,445,-0.004267914384369625
365,450,0.0021111851609565435
365,455,0.005327630107721069
365,460,-0.025434090297159134
365,465,-0.001454621167765876
365,470,-0.0007514433381536875
365,475,0.007105696178544574
365,480,0.005981514960584266
365,485,-0.00295218912577378
365,490,0.01398438517239203
365,495,-0.02657637312061718
365,500,0.0005505286667074906
365,505,-0.0022745287190600177
365,510,0.004993797817028189
365,515,-0.011545453060156544
365,520,0.0008240672980806265
365,525,0.006670132346189531
365,530,0.006028971674941145
365,535,0.007017097476909459
365,540,-0.007502815422062809
365,545,0.019593775702411272
365,550,-0.004284273710406467
365,555,9.469519865028191e-05
365,560,-0.004286572548445286
365,565,-0.004568689089572219
365,570,0.0027597872043036444
365,575,0.015590158868864617
365,580,0.004496585347371129
365,585,0.0016931820008313874
365,590,0.015426966295839598
365,595,-0.003211102003146577
365,600,0.014884715228715506
370,300,0.01465753412151862
370,305,-0.0012711776741082424
370,310,-0.003047579614813144
370,315,-0.014299698211300126
370,320,0.004796579760904554
370,325,-0.005444838319656065
370,330,-0.005223277212111156
370,335,0.011789826481564245
370,340,0.01651013234782632
370,345,-0.023035466076741243
370,350,0.007211556625495606
370,355,-0.013899236702709636
370,360,-0.00934637602859363
370,365,-0.0054280870461990306
370,370,0.005540586035231578
370,375,8.008552814295286e-05
370,380,-0.009220216059442642
370,385,-0.002258236289312833
370,390,-0.004104303187721912
370,395,0.004607897601249236
370,400,0.006274597462342778
370,405,-0.00917019989049281
370,410,-0.004711598214055368
370,415,-0.0012904991793929999
370,420,0.015108113853928852
370,425,-0.011475254435342022
370,430,0.004377241967291076
370,435,-8.42043058505258e-05
370,440,0.005272833214343535
370,445,-0.00534671435336998
370,450,0.006817547130248426
370,455,0.0055367598639417025
370,460,-0.00805334110898839
370,465,-0.013384588409485136
370,470,0.0055878259126609054
370,475,0.017776427491799286
370,480,0.0025386061954857965
370,485,-0.004340795076188242
370,490,-0.0045581789687650556
370,495,-0.009678989442846835
370,500,0.010772663295319479
370,505,-0.008525297089249618
370,510,0.0004535776531394053
370,515,0.01594898905807257
370,520,0.011969673309145916
370,525,0.009836999394697591
370,530,-0.002687246142585792
370,535,0.014477269322251768
370,540,0.01069815206423364
370,545,-0.007441954845533751
370,550,-0.0055076446225444066
370,555,-0.007032997700052563
370,560,-0.0021871269554912544
370,565,0.000725183831442331
370,570,0.004805077702993612
370,575,-0.010346653329677498
370,580,0.007860880468431019
370,585,-0.009455231188585624
370,590,0.0004194270919801729
370,595,-0.0017671046998143022
370,600,0.008152876552739637
375,300,-0.007441045322890453
375,305,-0.003799319866342058
375,310,0.010647071149236496
375,315,-0.003412827402100585
375,320,0.006551042324207005
375,325,0.0073807215956584946
375,330,-0.011133213923645413
375,335,0.0017863847943940016
375,340,-0.0049391591173480985
375,345,0.01098580161887686
375,350,-0.012754438220970646
375,355,0.010105964128944038
375,360,0.0057245799835911855
375,365,0.006621286459698494
375,370,-0.0017231854182600036
375,375,0.003540701308060016
375,380,-0.019535688145297173
375,385,0.01982342741662767
375,390,-0.0005287265520890735
375,395,0.015214468951917517
375,400,0.004679220318717082
375,405,-0.010986316209405348
375,410,-0.005668331575911347
375,415,0.0068485685218098126
375,420,0.0018002727062559792
375,425,0.00017327570722406308
375,430,0.004891259829547297
375,435,-0.012796389332644419
375,440,0.011240832194392513
375,445,0.0055339554663242935
375,450,0.0048759505131199385
375,455,-0.005472319757301958
375,460,0.0044614983859927295
375,465,-0.01665082421623594
375,470,0.0014306032329401976
375,475,-0.014763234353111422
375,480,0.0008597845402460124
375,485,0.023054546539950007
375,490,-0.015469629631134152
375,495,-0.0047244904703266505
375,500,0.008538330925867017
375,505,-0.005163248831891217
375,510,0.0033857407131771635
375,515,-0.011514195126686865
375,520,0.023586552373447856
375,525,-0.020440044560329343
375,530,-0.007691832993802453
375,535,0.004876155513236297
375,540,0.0008858667080134526
375,545,-0.003596157590457106
375,550,-0.006268221383438334
375,555,-0.006274193147925551
375,560,-0.007431847393461784
375,565,-0.005280636570538299
375,570,-0.0033953213162493884
375,575,0.0017475827158737241
375,580,0.01566243834819013
375,585,-0.0111270524117462
375,590,0.01597479498859375
375,595,-0.008185421554977668
375,600,-0.015173096135567277
380,300,-0.0025716134101587814
380,305,0.003536617654612996
380,310,-0.00845647079878651
380,315,0.026307880467691024
380,320,0.0301467169291054
380,325,-0.0018487941857203384
380,330,-0.014840942324271834
380,335,-0.01192039896244401
380,340,-0.009161902571997909
380,345,0.020509164931840823
380,350,-0.017548130055985683
380,355,-0.001791739751562331
380,360,-0.009853087220772461
380,365,0.006002475985728539
380,370,-0.00705405251465812
380,375,0.012294043489751098
380,380,-0.001984816341913212
380,385,-0.0156105731080556
380,390,-0.007531895482192979
380,395,0.0023121405204585307
380,400,-0.0011945095829562651
380,405,0.0162535574752172
380,410,-0.010977699270395644
380,415,0.0034141035143713523
380,420,-0.014266785338041604
380,425,0.0017877571836709572
380,430,0.01289765743374318
380,435,-0.01178317278350298
380,440,-0.017163326143515047
380,445,0.0003164044380134972
380,450,0.0030726945893642145
380,455,0.019076654809284947
380,460,-0.011666994267105596
380,465,0.023111772652058972
380,470,-0.0011476647328312664
380,475,0.003194332166633784
380,480,-0.007111994057420695
380,485,-0.011013881816853331
380,490,-0.007149487318351205
380,495,0.006127087017785905
380,500,0.01586060426871793
380,505,-0.009480675075145118
380,510,-0.0067997036283203305
380,515,0.005529579601596793
380,520,-0.005119240280036339
380,525,0.013972200513625778
380,530,-0.0014587513895823272
380,535,0.00461481759817524
380,540,-0.007132791108055168
380,545,0.007603749423665732
380,550,0.003433495358024336
380,555,-0.0030685537559115295
380,560,0.004151405246496811
380,565,-0.0024141102835436344
380,570,0.0016814324096893754
380,575,-0.0004684951183754347
380,580,-0.009699801561913317
380,585,0.003836237145466681
380,590,0.0021488239688876374
380,595,0.012071553031043824
380,600,-0.008593969518475152
385,300,0.008474829974557231
385,305,0.014762915777502321
385,310,0.010440838173469021
385,315,0.02050430223869473
385,320,0.015127758129660997
385,325,-0.004114808013795687
385,330,0.007764725175421094
385,335,0.010417637144318748
385,340,0.008735878687061239
385,345,-0.005971638003399016
385,350,0.002142143193746126
385,355,-0.0014414011739137457
385,360,-0.003747723201908966
385,365,-0.002888648969696423
385,370,-0.006609018841789984
385,375,0.0035061429072345347
385,380,0.015641877382782766
385,385,-0.006149702197997095
385,390,0.004772423460238308
385,395,-0.004630819572388684
385,400,0.0065845949603537315
385,405,0.0035904334464076587
385,410,0.013713034817442418
385,415,-0.012286853154291797
385,420,0.009540709162656614
385,425,-0.004041845706552973
385,430,-0.015832972797857142
385,435,0.01076881707331215
385,440,0.0057792033746095145
385,445,0.008089444530081398
385,450,0.012078597334945287
385,455,0.016397110696523966
385,460,0.021242076358711868
385,465,-0.01618935051693971
385,470,-0.005849483852549031
385,475,-0.002388320382192274
385,480,0.0038417029040174787
385,485,0.0035638021577913113
385,490,-0.0012021672070843278
385,495,0.006821198448238827
385,500,0.002418602047460454
385,505,-0.010392758310877928
385,510,0.0020123356280582726
385,515,-0.011163311886370307
385,520,0.0027253525628599022
385,525,0.020662505311836565
385,530,-0.0036131606966104623
385,535,0.0074201781221861505
385,540,-0.002935929794471915
385,545,-0.01195617334939234
385,550,0.004875939158194253
385,555,-0.01704617270646448
385,560,-0.0022541056746114138
385,565,-0.008823015648813505
385,570,-0.004083680667439657
385,575,-0.008462751029927822
385,580,0.010769471444961444
385,585,-0.005478923154133555
385,590,-0.01789028434219642
385,595,-0.0014216527632351283
385,600,0.007405524120604532
390,300,0.010548413410775448
390,305,-0.002541189598053982
390,310,-0.0026275000527214987
390,315,-0.014390953474366237
390,320,-0.004144035120175892
390,325,0.019990089771087287
390,330,0.0029820020209401867
390,335,-0.005835171767040466
390,340,0.01927014412113953
390,345,-0.007354934774685394
390,350,-0.008868905575181513
390,355,-0.0008776782048957285
390,360,0.005187407723880705
390,365,0.0026289146441909016
390,370,0.007866949732070028
390,375,-0.02023987810336136
390,380,-0.00886052388908744
390,385,0.007516862709487907
390,390,0.009324325880831244
390,395,0.008703825214143283
390,400,-0.009992091026789003
390,405,-0.005138212607570291
390,410,0.011488179925850831
390,415,-0.007881394584677303
390,420,-0.004181378022981968
390,425,0.0005329614826267761
390,430,-0.00037888276184789476
390,435,-0.005308368267345019
390,440,0.0011720501882517397
390,445,0.003200232656411401
390,450,0.00032503894418074264
390,455,0.0021448404921418306
390,460,0.005325829301867121
390,465,0.014466214450747139
390,470,-0.0017544171380980784
390,475,-0.006442959509549122
390,480,0.007791342657973262
390,485,-0.01441729252602642
390,490,0.006844117140526824
390,495,0.0061182658249453745
390,500,0.0003322944643833389
390,505,0.0005849782711490969
390,510,0.003908385806212533
390,515,-0.0017310828204893636
390,520,-0.014954476713017828
390,525,-0.009575341887498841
390,530,0.004007765241963603
390,535,-0.01767582645135204
390,540,-0.007882034372352367
390,545,0.01862988202443508
390,550,-0.008436821221794595
390,555,0.003969845585973875
390,560,-0.0029639077338463457
390,565,-0.014058763596800613
390,570,0.01405769973976632
390,575,0.020458989664572373
390,580,0.003134535448479338
390,585,0.0027894459952626533
390,590,0.00627460855688661
390,595,-0.013820518003532206
390,600,0.016740184080205507
395,300,-0.0017726618245186801
395,305,0.003174009610525696
395,310,0.0019763178019313633
395,315,0.007574015647119477
395,320,-0.0053685190664756076
395,325,0.0005311731240627342
395,330,0.009212601738721921
395,335,-0.004735086978058998
395,340,-0.00486751020053874
395,345,-0.004506135842362455
395,350,-0.020459316868093436
395,355,0.015571654528488727
395,360,-0.0013602972403046587
395,365,-0.0012338108502567633
395,370,0.005785769943611471
395,375,0.00975432580359368
395,380,0.014821969122869217
395,385,0.004059506603169382
395,390,0.0038758011965444416
395,395,-0.001528171486343446
395,400,-0.006186985880625968
395,405,-0.002459669899353776
395,410,0.015256977422613562
395,415,-0.007686252797110413
395,420,0.007126580588116628
395,425,-0.010333384606686803
395,430,0.009531822678602876
395,435,8.037834385897414e-05
395,440,0.013658972247602943
395,445,0.015027300672256105
395,450,-0.010747533476927345
395,455,-0.015170914789152373
395,460,-0.014410065758574666
395,465,0.0028687791173965887
395,470,-0.0002455563952784435
395,475,0.003499378816727345
395,480,-0.0058312418025796625
395,485,-0.005104798614387838
395,490,0.006127789759842901
395,495,0.0025129040094533438
395,500,-0.010652442275975692
395,505,-0.007008759191768744
395,510,-0.0038438060491228373
395,515,-0.0001650540651871226
395,520,0.014661774835009331
395,525,0.0009060748034299881
395,530,0.00031645306979839153
395,535,0.012259780235678011
395,540,0.018611400474558674
395,545,0.0010469169166808618
395,550,-0.010214969327582925
395,555,0.014786672459792358
395,560,0.006718933006725554
395,565,0.00026200617036157794
395,570,-0.007136722685088723
395,575,0.011618308689072829
395,580,-0.006085143147817257
395,585,-0.011621973382287196
395,590,0.0006628413386540564
395,595,0.001955592561645878
395,600,0.016169700024736954
400,300,-0.017654740231677214
400,305,0.027041911943121225
400,310,-0.002833057994381055
400,315,-0.009920095803355913
400,320,0.005563528487771712
400,325,-0.0010783330755845435
400,330,-0.007639744651827413
400,335,-0.008040329563379382
400,340,-0.005404772130106785
400,345,0.008458651644170055
400,350,-0.00378995478122294
400,355,-0.00920082162387924
400,360,-0.006814044775947361
400,365,-0.0013013701468602057
400,370,-0.004001269325905304
400,375,-0.00725798657735395
400,380,0.003020532691853903
400,385,-0.009841053967456695
400,390,-0.004542571795657855
400,395,0.008582033612556614
400,400,-0.005989187686554587
400,405,0.014918936147927539
400,410,-0.014420402701283178
400,415,0.005308877434460326
400,420,-0.015759760949815106
400,425,0.006339755696273937
400,430,-0.010065248408296607
400,435,-0.005146738838889244
400,440,-0.006444727670690414
400,445,0.013842251626703777
400,450,0.007957445547020521
400,455,0.006192589104851946
400,460,-0.0041141556203006255
400,465,-0.002209129481375434
400,470,-0.0018514424143124934
400,475,-0.00412625174596013
400,480,-0.0028772195417322162
400,485,0.00013843412624770003
400,490,-0.009379458831934391
400,495,-0.006374942550400117
400,500,-0.006171463320068776
400,505,0.005058818629765772
400,510,-0.0008021337545206131
400,515,-0.00532236680355247
400,520,0.00712817771853894
400,525,-0.0023545470710286897
400,530,-0.003368329704527912
400,535,-0.00388486177832358
400,540,0.004814958875830123
400,545,-0.005101644255625714
400,550,-0.0010213580185533862
400,555,-0.00952893672529371
400,560,0.00040844259551423955
400,565,0.0025827231933139116
400,570,0.01018579526716129
400,575,-0.0013923788703150437
400,580,-0.031118139612862215
400,585,-0.006803581939615445
400,590,-0.006590301404942596
400,595,0.014627347180601309
400,600,-0.00809055007997193
